#Thermo information
#TimeStep Temp PE KE
0 10.1231 -56.5436 0.93543
1 10.1938 -56.5502 0.94196
2 10.2635 -56.5566 0.948404
3 10.3322 -56.563 0.954745
4 10.3995 -56.5692 0.960971
5 10.4655 -56.5753 0.967064
6 10.5298 -56.5813 0.973005
7 10.5923 -56.5871 0.978781
8 10.6528 -56.5928 0.984376
9 10.7112 -56.5982 0.989774
10 10.7674 -56.6035 0.994959
11 10.821 -56.6086 0.999917
12 10.8721 -56.6134 1.00463
13 10.9204 -56.618 1.0091
14 10.9658 -56.6224 1.0133
15 11.0083 -56.6265 1.01723
16 11.0477 -56.6303 1.02087
17 11.0839 -56.6339 1.02421
18 11.1167 -56.6371 1.02724
19 11.1462 -56.6401 1.02996
20 11.1721 -56.6428 1.03236
21 11.1945 -56.6452 1.03443
22 11.2132 -56.6473 1.03615
23 11.2282 -56.649 1.03754
24 11.2394 -56.6505 1.03858
25 11.2469 -56.6516 1.03927
26 11.2505 -56.6524 1.0396
27 11.2502 -56.6528 1.03958
28 11.2461 -56.6529 1.0392
29 11.2382 -56.6527 1.03846
30 11.2263 -56.6522 1.03737
31 11.2107 -56.6513 1.03592
32 11.1912 -56.6501 1.03412
33 11.1679 -56.6486 1.03197
34 11.1409 -56.6468 1.02948
35 11.1102 -56.6446 1.02664
36 11.0759 -56.6422 1.02347
37 11.0381 -56.6394 1.01997
38 10.9967 -56.6363 1.01615
39 10.952 -56.633 1.01202
40 10.9039 -56.6293 1.00757
41 10.8526 -56.6254 1.00283
42 10.7982 -56.6212 0.997808
43 10.7408 -56.6167 0.992504
44 10.6805 -56.612 0.986936
45 10.6175 -56.6071 0.981113
46 10.5519 -56.6019 0.975049
47 10.4838 -56.5965 0.968757
48 10.4134 -56.5908 0.962248
49 10.3407 -56.585 0.955538
50 10.2661 -56.579 0.94864
51 10.1896 -56.5729 0.941572
52 10.1115 -56.5666 0.93435
53 10.0317 -56.5601 0.926983
54 9.95062 -56.5535 0.919489
55 9.86832 -56.5468 0.911883
56 9.78499 -56.54 0.904183
57 9.70079 -56.5331 0.896403
58 9.61589 -56.5262 0.888558
59 9.53047 -56.5191 0.880664
60 9.4447 -56.5121 0.872738
61 9.35875 -56.505 0.864797
62 9.27281 -56.4979 0.856855
63 9.18708 -56.4908 0.848933
64 9.10174 -56.4837 0.841047
65 9.01692 -56.4767 0.83321
66 8.93281 -56.4697 0.825437
67 8.84956 -56.4627 0.817745
68 8.76735 -56.4559 0.810148
69 8.68635 -56.4491 0.802663
70 8.6067 -56.4424 0.795303
71 8.52858 -56.4359 0.788084
72 8.45213 -56.4294 0.78102
73 8.37751 -56.4231 0.774125
74 8.30488 -56.417 0.767413
75 8.23438 -56.4111 0.760899
76 8.16613 -56.4053 0.754592
77 8.10026 -56.3997 0.748505
78 8.03689 -56.3943 0.74265
79 7.97616 -56.3892 0.737038
80 7.91818 -56.3842 0.73168
81 7.86305 -56.3795 0.726586
82 7.81088 -56.3751 0.721765
83 7.76178 -56.3709 0.717228
84 7.71582 -56.3669 0.712981
85 7.67311 -56.3632 0.709034
86 7.63371 -56.3598 0.705394
87 7.59772 -56.3567 0.702069
88 7.56521 -56.3539 0.699064
89 7.53622 -56.3513 0.696385
90 7.51081 -56.3491 0.694037
91 7.48903 -56.3471 0.692024
92 7.47089 -56.3455 0.690349
93 7.45644 -56.3442 0.689013
94 7.44569 -56.3431 0.68802
95 7.43867 -56.3424 0.687371
96 7.43537 -56.342 0.687067
97 7.43582 -56.3419 0.687108
98 7.44 -56.3421 0.687494
99 7.4479 -56.3426 0.688224
100 7.45952 -56.3434 0.689298
101 7.47484 -56.3446 0.690713
102 7.49384 -56.346 0.692469
103 7.51647 -56.3477 0.69456
104 7.54267 -56.3497 0.696981
105 7.57241 -56.352 0.699729
106 7.60562 -56.3546 0.702799
107 7.64226 -56.3574 0.706183
108 7.68223 -56.3605 0.709878
109 7.72549 -56.3639 0.713875
110 7.77194 -56.3675 0.718167
111 7.8215 -56.3714 0.722746
112 7.87408 -56.3755 0.727605
113 7.92958 -56.3798 0.732734
114 7.98791 -56.3843 0.738124
115 8.04896 -56.389 0.743765
116 8.11262 -56.394 0.749647
117 8.17877 -56.3991 0.75576
118 8.24729 -56.4043 0.762092
119 8.31807 -56.4098 0.768632
120 8.39097 -56.4153 0.775369
121 8.46588 -56.421 0.782291
122 8.54267 -56.4269 0.789386
123 8.62118 -56.4328 0.796641
124 8.70127 -56.4388 0.804041
125 8.78279 -56.4449 0.811575
126 8.86561 -56.4511 0.819228
127 8.94957 -56.4573 0.826986
128 9.03453 -56.4635 0.834837
129 9.12033 -56.4698 0.842765
130 9.20681 -56.4761 0.850757
131 9.29382 -56.4823 0.858797
132 9.3812 -56.4886 0.866871
133 9.4688 -56.4948 0.874965
134 9.55645 -56.5009 0.883065
135 9.644 -56.507 0.891155
136 9.7313 -56.513 0.899222
137 9.8182 -56.5189 0.907251
138 9.90452 -56.5247 0.915229
139 9.99014 -56.5304 0.92314
140 10.0749 -56.5359 0.930971
141 10.1586 -56.5413 0.938708
142 10.2412 -56.5466 0.946341
143 10.3225 -56.5516 0.953854
144 10.4024 -56.5565 0.961236
145 10.4807 -56.5612 0.968474
146 10.5574 -56.5657 0.975556
147 10.6322 -56.57 0.98247
148 10.705 -56.574 0.989201
149 10.7758 -56.5778 0.99574
150 10.8444 -56.5813 1.00208
151 10.9107 -56.5846 1.00821
152 10.9746 -56.5877 1.01411
153 11.036 -56.5904 1.01978
154 11.0948 -56.5929 1.02522
155 11.1509 -56.5951 1.0304
156 11.2041 -56.597 1.03532
157 11.2546 -56.5986 1.03998
158 11.302 -56.5999 1.04437
159 11.3465 -56.6008 1.04848
160 11.3879 -56.6015 1.0523
161 11.4262 -56.6019 1.05584
162 11.4614 -56.6019 1.05909
163 11.4934 -56.6016 1.06205
164 11.5222 -56.6011 1.06471
165 11.5478 -56.6001 1.06708
166 11.5701 -56.5989 1.06914
167 11.5893 -56.5974 1.07091
168 11.6052 -56.5955 1.07238
169 11.6178 -56.5934 1.07355
170 11.6274 -56.5909 1.07443
171 11.6338 -56.5881 1.07502
172 11.6371 -56.5851 1.07532
173 11.6373 -56.5817 1.07534
174 11.6344 -56.5781 1.07508
175 11.6287 -56.5741 1.07455
176 11.62 -56.5699 1.07374
177 11.6085 -56.5655 1.07268
178 11.5942 -56.5608 1.07137
179 11.5773 -56.5558 1.06981
180 11.5579 -56.5506 1.06801
181 11.536 -56.5452 1.06599
182 11.5118 -56.5396 1.06375
183 11.4854 -56.5337 1.06131
184 11.4568 -56.5277 1.05867
185 11.4263 -56.5215 1.05585
186 11.394 -56.5152 1.05286
187 11.36 -56.5086 1.04972
188 11.3244 -56.502 1.04643
189 11.2875 -56.4952 1.04302
190 11.2493 -56.4883 1.03949
191 11.21 -56.4813 1.03586
192 11.1698 -56.4742 1.03214
193 11.1287 -56.4671 1.02835
194 11.0871 -56.4599 1.0245
195 11.045 -56.4527 1.02061
196 11.0026 -56.4454 1.01669
197 10.9601 -56.4382 1.01276
198 10.9176 -56.4309 1.00884
199 10.8753 -56.4237 1.00493
200 10.8333 -56.4165 1.00106
201 10.7919 -56.4094 0.997231
202 10.7513 -56.4023 0.993471
203 10.7114 -56.3953 0.989789
204 10.6726 -56.3884 0.986202
205 10.635 -56.3816 0.982724
206 10.5987 -56.375 0.979371
207 10.5639 -56.3685 0.976154
208 10.5307 -56.3621 0.973086
209 10.4992 -56.3559 0.970181
210 10.4697 -56.3498 0.96745
211 10.4421 -56.344 0.964905
212 10.4167 -56.3383 0.962558
213 10.3936 -56.3329 0.960419
214 10.3728 -56.3276 0.958499
215 10.3545 -56.3226 0.956806
216 10.3387 -56.3178 0.955349
217 10.3256 -56.3133 0.954137
218 10.3152 -56.309 0.953177
219 10.3076 -56.3049 0.952475
220 10.3029 -56.3011 0.952036
221 10.301 -56.2976 0.951867
222 10.3021 -56.2943 0.95197
223 10.3062 -56.2913 0.952349
224 10.3134 -56.2886 0.953007
225 10.3235 -56.2861 0.953946
226 10.3367 -56.2839 0.955165
227 10.3529 -56.282 0.956665
228 10.3722 -56.2803 0.958445
229 10.3945 -56.279 0.960503
230 10.4197 -56.2779 0.962836
231 10.4479 -56.277 0.965443
232 10.4791 -56.2764 0.96832
233 10.513 -56.2761 0.971458
234 10.5498 -56.276 0.974852
235 10.5892 -56.2762 0.978495
236 10.6312 -56.2766 0.982379
237 10.6758 -56.2772 0.986496
238 10.7228 -56.278 0.990837
239 10.772 -56.2791 0.995392
240 10.8235 -56.2803 1.00015
241 10.8771 -56.2818 1.0051
242 10.9326 -56.2834 1.01023
243 10.99 -56.2852 1.01554
244 11.0492 -56.2871 1.021
245 11.1098 -56.2892 1.0266
246 11.1718 -56.2914 1.03234
247 11.2351 -56.2938 1.03818
248 11.2994 -56.2963 1.04413
249 11.3647 -56.2988 1.05015
250 11.4306 -56.3014 1.05625
251 11.4972 -56.3041 1.0624
252 11.5641 -56.3069 1.06858
253 11.6312 -56.3097 1.07478
254 11.6984 -56.3125 1.08099
255 11.7654 -56.3153 1.08718
256 11.8321 -56.3182 1.09335
257 11.8984 -56.321 1.09947
258 11.9639 -56.3237 1.10553
259 12.0286 -56.3265 1.1115
260 12.0923 -56.3291 1.11739
261 12.1547 -56.3317 1.12316
262 12.2158 -56.3343 1.1288
263 12.2753 -56.3367 1.1343
264 12.3331 -56.339 1.13964
265 12.389 -56.3411 1.1448
266 12.4429 -56.3432 1.14978
267 12.4946 -56.345 1.15456
268 12.544 -56.3468 1.15913
269 12.591 -56.3483 1.16347
270 12.6354 -56.3497 1.16758
271 12.6771 -56.3509 1.17143
272 12.7159 -56.3519 1.17502
273 12.7518 -56.3527 1.17833
274 12.7846 -56.3532 1.18136
275 12.8142 -56.3536 1.1841
276 12.8407 -56.3537 1.18654
277 12.8638 -56.3536 1.18868
278 12.8835 -56.3532 1.1905
279 12.8998 -56.3526 1.19201
280 12.9126 -56.3517 1.19319
281 12.9218 -56.3506 1.19404
282 12.9274 -56.3492 1.19456
283 12.9295 -56.3476 1.19475
284 12.9279 -56.3457 1.1946
285 12.9227 -56.3436 1.19412
286 12.9139 -56.3412 1.19331
287 12.9015 -56.3385 1.19217
288 12.8856 -56.3356 1.1907
289 12.8662 -56.3325 1.1889
290 12.8432 -56.329 1.18678
291 12.8169 -56.3254 1.18435
292 12.7873 -56.3215 1.18161
293 12.7544 -56.3174 1.17857
294 12.7183 -56.3131 1.17523
295 12.6791 -56.3085 1.17161
296 12.6369 -56.3037 1.16772
297 12.5919 -56.2988 1.16355
298 12.5441 -56.2936 1.15914
299 12.4937 -56.2883 1.15448
300 12.4408 -56.2828 1.14959
301 12.3856 -56.2772 1.14449
302 12.3282 -56.2714 1.13919
303 12.2687 -56.2654 1.13369
304 12.2074 -56.2594 1.12802
305 12.1443 -56.2532 1.1222
306 12.0797 -56.247 1.11623
307 12.0139 -56.2407 1.11014
308 11.9468 -56.2343 1.10395
309 11.8788 -56.2279 1.09766
310 11.81 -56.2214 1.0913
311 11.7405 -56.2149 1.08488
312 11.6705 -56.2085 1.07841
313 11.6003 -56.202 1.07192
314 11.53 -56.1955 1.06543
315 11.4597 -56.1891 1.05894
316 11.3898 -56.1828 1.05248
317 11.3204 -56.1765 1.04606
318 11.2516 -56.1703 1.0397
319 11.1837 -56.1642 1.03343
320 11.1167 -56.1583 1.02724
321 11.051 -56.1524 1.02117
322 10.9868 -56.1467 1.01523
323 10.924 -56.1412 1.00943
324 10.863 -56.1359 1.00379
325 10.8037 -56.1307 0.998321
326 10.7465 -56.1258 0.993036
327 10.6915 -56.121 0.987954
328 10.6388 -56.1165 0.983084
329 10.5885 -56.1122 0.978434
330 10.5407 -56.1081 0.974015
331 10.4955 -56.1044 0.969838
332 10.4531 -56.1008 0.965919
333 10.4136 -56.0976 0.962268
334 10.377 -56.0946 0.958889
335 10.3435 -56.0919 0.955788
336 10.313 -56.0895 0.952972
337 10.2857 -56.0874 0.950447
338 10.2615 -56.0856 0.948218
339 10.2407 -56.0841 0.946292
340 10.2232 -56.0829 0.944671
341 10.209 -56.082 0.943364
342 10.1983 -56.0815 0.942373
343 10.1909 -56.0812 0.941696
344 10.187 -56.0813 0.941333
345 10.1865 -56.0817 0.941286
346 10.1894 -56.0825 0.941553
347 10.1957 -56.0835 0.942134
348 10.2054 -56.0849 0.943027
349 10.2183 -56.0865 0.944228
350 10.2347 -56.0885 0.945734
351 10.2542 -56.0908 0.947545
352 10.2771 -56.0934 0.949656
353 10.3031 -56.0963 0.952063
354 10.3323 -56.0996 0.954759
355 10.3645 -56.1031 0.957734
356 10.3996 -56.1068 0.96098
357 10.4376 -56.1109 0.964489
358 10.4783 -56.1152 0.968253
359 10.5217 -56.1198 0.972262
360 10.5677 -56.1246 0.976508
361 10.6161 -56.1297 0.98098
362 10.6668 -56.135 0.985667
363 10.7197 -56.1405 0.990557
364 10.7747 -56.1463 0.995641
365 10.8317 -56.1522 1.00091
366 10.8906 -56.1584 1.00635
367 10.9512 -56.1647 1.01194
368 11.0133 -56.1712 1.01768
369 11.0768 -56.1778 1.02355
370 11.1416 -56.1846 1.02954
371 11.2075 -56.1916 1.03563
372 11.2743 -56.1986 1.04181
373 11.3419 -56.2058 1.04805
374 11.4101 -56.2131 1.05435
375 11.4787 -56.2204 1.06069
376 11.5476 -56.2278 1.06706
377 11.6166 -56.2353 1.07343
378 11.6855 -56.2428 1.0798
379 11.7542 -56.2504 1.08615
380 11.8225 -56.2579 1.09246
381 11.8901 -56.2655 1.09871
382 11.957 -56.273 1.10489
383 12.023 -56.2806 1.11099
384 12.0878 -56.288 1.11698
385 12.1514 -56.2955 1.12285
386 12.2135 -56.3028 1.12859
387 12.2739 -56.3101 1.13417
388 12.3326 -56.3173 1.1396
389 12.3893 -56.3244 1.14484
390 12.4439 -56.3314 1.14988
391 12.4962 -56.3382 1.15471
392 12.5461 -56.3449 1.15932
393 12.5934 -56.3515 1.1637
394 12.6381 -56.3579 1.16782
395 12.6798 -56.3641 1.17168
396 12.7186 -56.3702 1.17527
397 12.7542 -56.376 1.17856
398 12.7867 -56.3817 1.18156
399 12.8158 -56.3871 1.18425
400 12.8415 -56.3924 1.18662
401 12.8636 -56.3974 1.18866
402 12.882 -56.4021 1.19036
403 12.8967 -56.4066 1.19172
404 12.9075 -56.4109 1.19272
405 12.9144 -56.4149 1.19336
406 12.9174 -56.4187 1.19363
407 12.9163 -56.4222 1.19354
408 12.9112 -56.4254 1.19306
409 12.9019 -56.4284 1.1922
410 12.8885 -56.4311 1.19096
411 12.871 -56.4335 1.18934
412 12.8493 -56.4356 1.18734
413 12.8235 -56.4375 1.18496
414 12.7936 -56.4391 1.18219
415 12.7596 -56.4404 1.17906
416 12.7217 -56.4414 1.17555
417 12.6797 -56.4422 1.17167
418 12.6339 -56.4427 1.16743
419 12.5842 -56.4429 1.16285
420 12.5309 -56.4429 1.15792
421 12.4739 -56.4426 1.15265
422 12.4133 -56.4421 1.14705
423 12.3494 -56.4414 1.14114
424 12.2821 -56.4404 1.13493
425 12.2117 -56.4392 1.12842
426 12.1382 -56.4378 1.12163
427 12.0619 -56.4362 1.11458
428 11.9829 -56.4344 1.10728
429 11.9014 -56.4324 1.09975
430 11.8175 -56.4302 1.092
431 11.7315 -56.4279 1.08405
432 11.6435 -56.4254 1.07592
433 11.5537 -56.4228 1.06762
434 11.4623 -56.42 1.05917
435 11.3696 -56.4172 1.0506
436 11.2757 -56.4142 1.04193
437 11.1808 -56.4112 1.03316
438 11.0852 -56.408 1.02432
439 10.9889 -56.4048 1.01544
440 10.8924 -56.4016 1.00652
441 10.7959 -56.3984 0.997594
442 10.6994 -56.3951 0.988682
443 10.6032 -56.3918 0.979794
444 10.5075 -56.3885 0.970949
445 10.4125 -56.3852 0.962165
446 10.3183 -56.382 0.953461
447 10.2251 -56.3788 0.944855
448 10.1332 -56.3757 0.936363
449 10.0428 -56.3726 0.928003
450 9.95392 -56.3696 0.919793
451 9.86682 -56.3667 0.911745
452 9.78164 -56.3639 0.903873
453 9.69852 -56.3612 0.896193
454 9.61761 -56.3586 0.888716
455 9.53905 -56.3562 0.881457
456 9.46297 -56.3539 0.874427
457 9.38951 -56.3517 0.867639
458 9.3188 -56.3497 0.861105
459 9.25091 -56.3479 0.854832
460 9.18595 -56.3463 0.848829
461 9.124 -56.3448 0.843105
462 9.06516 -56.3435 0.837667
463 9.00948 -56.3424 0.832522
464 8.95705 -56.3416 0.827677
465 8.9079 -56.3409 0.823136
466 8.86215 -56.3404 0.818908
467 8.81983 -56.3402 0.814997
468 8.78093 -56.3402 0.811402
469 8.74548 -56.3404 0.808127
470 8.7135 -56.3408 0.805172
471 8.685 -56.3415 0.802538
472 8.66003 -56.3424 0.800231
473 8.63858 -56.3435 0.798249
474 8.62062 -56.3448 0.796589
475 8.60612 -56.3464 0.795249
476 8.59506 -56.3482 0.794227
477 8.58741 -56.3503 0.79352
478 8.58314 -56.3526 0.793126
479 8.58221 -56.3551 0.79304
480 8.58457 -56.3578 0.793258
481 8.59017 -56.3607 0.793775
482 8.59895 -56.3639 0.794587
483 8.61086 -56.3673 0.795688
484 8.62582 -56.3708 0.79707
485 8.64377 -56.3746 0.798728
486 8.66465 -56.3786 0.800658
487 8.68839 -56.3828 0.802851
488 8.71486 -56.3872 0.805298
489 8.74398 -56.3917 0.807988
490 8.77565 -56.3964 0.810915
491 8.80979 -56.4013 0.814069
492 8.84627 -56.4064 0.817441
493 8.88501 -56.4116 0.82102
494 8.92589 -56.417 0.824798
495 8.96881 -56.4224 0.828764
496 9.01364 -56.4281 0.832907
497 9.06029 -56.4338 0.837217
498 9.10861 -56.4396 0.841683
499 9.15851 -56.4456 0.846293
500 9.20985 -56.4516 0.851037
501 9.2625 -56.4578 0.855903
502 9.31635 -56.4639 0.860879
503 9.37127 -56.4702 0.865953
504 9.42712 -56.4765 0.871114
505 9.48378 -56.4829 0.87635
506 9.54116 -56.4892 0.881652
507 9.59913 -56.4956 0.887009
508 9.65752 -56.5021 0.892404
509 9.71619 -56.5085 0.897826
510 9.77502 -56.5149 0.903262
511 9.83388 -56.5213 0.908701
512 9.89263 -56.5276 0.91413
513 9.95115 -56.534 0.919537
514 10.0093 -56.5402 0.924911
515 10.067 -56.5464 0.930239
516 10.124 -56.5526 0.935511
517 10.1803 -56.5586 0.940714
518 10.2358 -56.5646 0.945838
519 10.2902 -56.5705 0.950871
520 10.3436 -56.5762 0.955802
521 10.3958 -56.5818 0.960622
522 10.4466 -56.5873 0.96532
523 10.496 -56.5927 0.969885
524 10.5439 -56.5979 0.974313
525 10.5903 -56.603 0.978595
526 10.6349 -56.6079 0.982717
527 10.6777 -56.6127 0.986671
528 10.7186 -56.6172 0.990449
529 10.7574 -56.6216 0.994043
530 10.7943 -56.6258 0.997446
531 10.829 -56.6298 1.00065
532 10.8614 -56.6336 1.00365
533 10.8916 -56.6372 1.00644
534 10.9195 -56.6406 1.00902
535 10.945 -56.6438 1.01137
536 10.968 -56.6468 1.0135
537 10.9886 -56.6495 1.0154
538 11.0067 -56.652 1.01707
539 11.0222 -56.6543 1.01851
540 11.0352 -56.6564 1.01971
541 11.0456 -56.6582 1.02067
542 11.0534 -56.6598 1.0214
543 11.0587 -56.6612 1.02188
544 11.0613 -56.6623 1.02212
545 11.0614 -56.6632 1.02213
546 11.0589 -56.6639 1.0219
547 11.0538 -56.6644 1.02143
548 11.0462 -56.6646 1.02073
549 11.0361 -56.6646 1.0198
550 11.0236 -56.6644 1.01864
551 11.0086 -56.664 1.01725
552 10.9913 -56.6633 1.01566
553 10.9717 -56.6625 1.01384
554 10.9498 -56.6614 1.01182
555 10.9257 -56.6602 1.00959
556 10.8995 -56.6588 1.00717
557 10.8712 -56.6571 1.00455
558 10.8408 -56.6553 1.00175
559 10.8085 -56.6533 0.998762
560 10.7744 -56.6512 0.995606
561 10.7384 -56.6489 0.992285
562 10.7008 -56.6464 0.988807
563 10.6615 -56.6438 0.985179
564 10.6207 -56.641 0.981409
565 10.5785 -56.6381 0.977506
566 10.5349 -56.6351 0.973478
567 10.49 -56.632 0.969332
568 10.444 -56.6287 0.965078
569 10.3969 -56.6254 0.960723
570 10.3487 -56.6219 0.956277
571 10.2997 -56.6184 0.951747
572 10.2499 -56.6148 0.947142
573 10.1993 -56.6111 0.94247
574 10.1481 -56.6073 0.93774
575 10.0964 -56.6035 0.932959
576 10.0442 -56.5996 0.928135
577 9.99162 -56.5957 0.923277
578 9.93876 -56.5917 0.918392
579 9.88567 -56.5877 0.913487
580 9.83246 -56.5837 0.90857
581 9.77919 -56.5797 0.903647
582 9.72593 -56.5757 0.898726
583 9.67276 -56.5716 0.893813
584 9.61975 -56.5676 0.888914
585 9.56696 -56.5635 0.884036
586 9.51445 -56.5595 0.879184
587 9.46229 -56.5555 0.874364
588 9.41055 -56.5515 0.869583
589 9.35929 -56.5475 0.864846
590 9.30854 -56.5435 0.860156
591 9.25833 -56.5396 0.855517
592 9.20872 -56.5358 0.850933
593 9.15975 -56.5319 0.846407
594 9.11145 -56.5281 0.841944
595 9.06386 -56.5244 0.837547
596 9.01705 -56.5207 0.833222
597 8.97104 -56.517 0.82897
598 8.92584 -56.5134 0.824793
599 8.88148 -56.5099 0.820694
600 8.838 -56.5064 0.816676
601 8.79539 -56.503 0.812739
602 8.75366 -56.4996 0.808883
603 8.71284 -56.4963 0.805111
604 8.67295 -56.4931 0.801425
605 8.634 -56.4899 0.797825
606 8.596 -56.4868 0.794314
607 8.55896 -56.4838 0.790892
608 8.5229 -56.4808 0.78756
609 8.48784 -56.4779 0.78432
610 8.45377 -56.475 0.781172
611 8.42072 -56.4722 0.778117
612 8.38868 -56.4695 0.775157
613 8.35768 -56.4669 0.772292
614 8.32771 -56.4643 0.769523
615 8.2988 -56.4618 0.766852
616 8.27095 -56.4593 0.764278
617 8.24418 -56.457 0.761804
618 8.21849 -56.4547 0.75943
619 8.1939 -56.4525 0.757158
620 8.17042 -56.4503 0.754988
621 8.14806 -56.4483 0.752923
622 8.12685 -56.4463 0.750963
623 8.1068 -56.4444 0.74911
624 8.08792 -56.4425 0.747365
625 8.07024 -56.4408 0.745732
626 8.05378 -56.4391 0.74421
627 8.03855 -56.4376 0.742803
628 8.02459 -56.4361 0.741513
629 8.0119 -56.4347 0.740341
630 8.00053 -56.4334 0.73929
631 7.99051 -56.4322 0.738364
632 7.98187 -56.4311 0.737565
633 7.97461 -56.43 0.736895
634 7.96878 -56.4291 0.736356
635 7.96439 -56.4283 0.73595
636 7.96147 -56.4276 0.735681
637 7.96007 -56.427 0.735551
638 7.96021 -56.4265 0.735564
639 7.96192 -56.4262 0.735722
640 7.96524 -56.4259 0.736029
641 7.97019 -56.4258 0.736487
642 7.97682 -56.4258 0.737099
643 7.98515 -56.4259 0.737868
644 7.9952 -56.4262 0.738798
645 8.00703 -56.4265 0.73989
646 8.02064 -56.4271 0.741148
647 8.03607 -56.4277 0.742574
648 8.05335 -56.4285 0.744171
649 8.0725 -56.4294 0.74594
650 8.09357 -56.4305 0.747887
651 8.11658 -56.4317 0.750014
652 8.14153 -56.4331 0.752319
653 8.16843 -56.4346 0.754805
654 8.19732 -56.4362 0.757474
655 8.2282 -56.4381 0.760328
656 8.26107 -56.44 0.763365
657 8.29594 -56.4421 0.766587
658 8.3328 -56.4444 0.769994
659 8.37167 -56.4468 0.773585
660 8.41251 -56.4494 0.777358
661 8.45529 -56.4521 0.781312
662 8.50001 -56.455 0.785444
663 8.54663 -56.458 0.789752
664 8.59514 -56.4611 0.794235
665 8.6455 -56.4644 0.798888
666 8.69766 -56.4678 0.803709
667 8.7516 -56.4713 0.808693
668 8.80726 -56.475 0.813836
669 8.8646 -56.4788 0.819135
670 8.92358 -56.4827 0.824585
671 8.98412 -56.4867 0.830178
672 9.04613 -56.4909 0.835909
673 9.10956 -56.4951 0.84177
674 9.17432 -56.4994 0.847754
675 9.24033 -56.5038 0.853853
676 9.3075 -56.5083 0.860061
677 9.37574 -56.5129 0.866367
678 9.44496 -56.5175 0.872762
679 9.51505 -56.5221 0.879239
680 9.5859 -56.5269 0.885787
681 9.65742 -56.5316 0.892395
682 9.72949 -56.5364 0.899055
683 9.80201 -56.5412 0.905755
684 9.87483 -56.546 0.912485
